# k-points (distance from the origin) Eigenvalues (eV)
         0.00000000  -12.84823942
         0.02088826  -12.84399334
         0.04177652  -12.83096050
         0.06266477  -12.80908051
         0.08355303  -12.77833992
         0.10444129  -12.73872885
         0.12532955  -12.69055288
         0.14621781  -12.63375251
         0.16710606  -12.56839839
         0.18799432  -12.49480624
         0.20888258  -12.41301114
         0.22977084  -12.32303423
         0.25065910  -12.22520513
         0.27154735  -12.11992619
         0.29243561  -12.00702145
         0.31332387  -11.88705189
         0.33421213  -11.76013165
         0.35510038  -11.62670617
         0.37598864  -11.48748491
         0.39687690  -11.34230237
         0.41776516  -11.19202942
         0.43865342  -11.03718989
         0.45954167  -10.87867229
         0.48042993  -10.71726370
         0.50131819  -10.55372590
         0.52220645  -10.38911851
         0.54309471  -10.22521443
         0.56398296  -10.06348541
         0.58487122   -9.90570157
         0.60575948   -9.75428731
         0.62664774   -9.61246614
         0.64753600   -9.48278470
         0.66842425   -9.36884737
         0.68931251   -9.27487933
         0.71020077   -9.20408216
         0.73108903   -9.16031155
         0.75197729   -9.14539790
         0.77265109   -9.14310031
         0.79332490   -9.13585773
         0.81399871   -9.12389129
         0.83467251   -9.10772657
         0.85534632   -9.08706996
         0.87602013   -9.06236999
         0.89669393   -9.03371676
         0.91736774   -9.00163064
         0.93804155   -8.96605019
         0.95871535   -8.92822182
         0.97938916   -8.88799374
         1.00006297   -8.84662729
         1.02073678   -8.80440889
         1.04141058   -8.76215208
         1.06208439   -8.72126530
         1.08275820   -8.68256340
         1.10343200   -8.64716715
         1.12410581   -8.61723421
         1.14477962   -8.59362649
         1.16545342   -8.57799929
         1.18612723   -8.57250253
         1.20680135   -8.57862874
         1.22747547   -8.59794081
         1.24814958   -8.63196736
         1.26882370   -8.68151496
         1.28949782   -8.74747422
         1.31017193   -8.82949251
         1.33084605   -8.92680888
         1.35152017   -9.03833336
         1.37219429   -9.16314657
         1.39286840   -9.29908338
         1.41354252   -9.44438210
         1.43421664   -9.59740826
         1.45489075   -9.75639654
         1.47556487   -9.91959911
         1.49623899  -10.08512630
         1.51691310  -10.25211566
         1.53758722  -10.41931291
         1.55826134  -10.58504700
         1.57893546  -10.74901293
         1.59960957  -10.91001780
         1.62028369  -11.06753701
         1.64095781  -11.22074495
         1.66163192  -11.36905541
         1.68230604  -11.51203839
         1.70298016  -11.64943758
         1.72365428  -11.78046448
         1.74432839  -11.90527989
         1.76500251  -12.02309790
         1.78567663  -12.13406827
         1.80635074  -12.23735709
         1.82702486  -12.33330995
         1.84769898  -12.42157805
         1.86837310  -12.50174304
         1.88904721  -12.57389103
         1.90972133  -12.63797550
         1.93039545  -12.69350396
         1.95106956  -12.74085455
         1.97174368  -12.77955614
         1.99241780  -12.80978253
         2.01309191  -12.83130746
         2.03376603  -12.84403991
         2.05444015  -12.84823942
        
    0.00000000   -9.29015555
         0.02088826   -9.28389528
         0.04177652   -9.26512393
         0.06266477   -9.23387561
         0.08355303   -9.19020832
         0.10444129   -9.13420484
         0.12532955   -9.06597616
         0.14621781   -8.98566091
         0.16710606   -8.89342955
         0.18799432   -8.78948997
         0.20888258   -8.67408944
         0.22977084   -8.54752011
         0.25065910   -8.41013517
         0.27154735   -8.26235247
         0.29243561   -8.10466428
         0.31332387   -7.93766689
         0.33421213   -7.76207312
         0.35510038   -7.57874898
         0.37598864   -7.38875541
         0.39687690   -7.19339707
         0.41776516   -6.99432238
         0.43865342   -6.79365285
         0.45954167   -6.59423343
         0.48042993   -6.40010937
         0.50131819   -6.21763490
         0.52220645   -6.05734918
         0.54309471   -5.93412150
         0.56398296   -5.85826882
         0.58487122   -5.82608511
         0.60575948   -5.82570673
         0.62664774   -5.84552855
         0.64753600   -5.87655666
         0.66842425   -5.91195546
         0.68931251   -5.94620495
         0.71020077   -5.97457139
         0.73108903   -5.99328355
         0.75197729   -5.99982664
         0.77265109   -5.99727098
         0.79332490   -5.98963341
         0.81399871   -5.97696233
         0.83467251   -5.95934177
         0.85534632   -5.93687959
         0.87602013   -5.90973413
         0.89669393   -5.87805688
         0.91736774   -5.84206728
         0.93804155   -5.80197028
         0.95871535   -5.75806169
         0.97938916   -5.71060168
         1.00006297   -5.65991299
         1.02073678   -5.60630537
         1.04141058   -5.55012970
         1.06208439   -5.49174511
         1.08275820   -5.43155989
         1.10343200   -5.36995497
         1.12410581   -5.30742015
         1.14477962   -5.24460088
         1.16545342   -5.18314162
         1.18612723   -5.14060197
         1.20680135   -5.18151786
         1.22747547   -5.23761031
         1.24814958   -5.29044119
         1.26882370   -5.33769474
         1.28949782   -5.37844791
         1.31017193   -5.41229270
         1.33084605   -5.43945934
         1.35152017   -5.46072420
         1.37219429   -5.47753639
         1.39286840   -5.49185889
         1.41354252   -5.50660752
         1.43421664   -5.52602272
         1.45489075   -5.55662926
         1.47556487   -5.60851921
         1.49623899   -5.69533198
         1.51691310   -5.82692536
         1.53758722   -5.99744356
         1.55826134   -6.19088060
         1.57893546   -6.39503815
         1.59960957   -6.60318790
         1.62028369   -6.81150220
         1.64095781   -7.01748751
         1.66163192   -7.21934274
         1.68230604   -7.41568030
         1.70298016   -7.60538589
         1.72365428   -7.78753959
         1.74432839   -7.96137961
         1.76500251   -8.12625529
         1.78567663   -8.28161939
         1.80635074   -8.42699739
         1.82702486   -8.56198842
         1.84769898   -8.68624428
         1.86837310   -8.79946247
         1.88904721   -8.90138839
         1.90972133   -8.99180215
         1.93039545   -9.07051362
         1.95106956   -9.13737064
         1.97174368   -9.19224025
         1.99241780   -9.23502147
         2.01309191   -9.26563423
         2.03376603   -9.28402272
         2.05444015   -9.29015555
        
    0.00000000   -8.98482497
         0.02088826   -8.97866182
         0.04177652   -8.96017872
         0.06266477   -8.92941421
         0.08355303   -8.88643257
         0.10444129   -8.83132612
         0.12532955   -8.76422125
         0.14621781   -8.68527404
         0.16710606   -8.59467864
         0.18799432   -8.49267084
         0.20888258   -8.37953476
         0.22977084   -8.25560807
         0.25065910   -8.12129875
         0.27154735   -7.97709646
         0.29243561   -7.82357748
         0.31332387   -7.66144750
         0.33421213   -7.49154790
         0.35510038   -7.31490453
         0.37598864   -7.13276590
         0.39687690   -6.94663773
         0.41776516   -6.75837843
         0.43865342   -6.57023948
         0.45954167   -6.38493203
         0.48042993   -6.20559207
         0.50131819   -6.03540477
         0.52220645   -5.87619195
         0.54309471   -5.72705627
         0.56398296   -5.58804805
         0.58487122   -5.46467829
         0.60575948   -5.36503076
         0.62664774   -5.30320093
         0.64753600   -5.28358704
         0.66842425   -5.27769287
         0.68931251   -5.27546950
         0.71020077   -5.27464642
         0.73108903   -5.27440439
         0.75197729   -5.27435522
         0.77265109   -5.27127885
         0.79332490   -5.26204875
         0.81399871   -5.24677680
         0.83467251   -5.22564089
         0.85534632   -5.19884722
         0.87602013   -5.16672038
         0.89669393   -5.12962141
         0.91736774   -5.08799241
         0.93804155   -5.04232243
         0.95871535   -4.99321250
         0.97938916   -4.94133674
         1.00006297   -4.88741145
         1.02073678   -4.83231562
         1.04141058   -4.77698802
         1.06208439   -4.73148257
         1.08275820   -4.78812989
         1.10343200   -4.85002632
         1.12410581   -4.91440549
         1.14477962   -4.97955354
         1.16545342   -5.04302123
         1.18612723   -5.08641804
         1.20680135   -5.04434661
         1.22747547   -4.98413496
         1.24814958   -4.92346169
         1.26882370   -4.86413758
         1.28949782   -4.80727242
         1.31017193   -4.75451588
         1.33084605   -4.71055393
         1.35152017   -4.69087101
         1.37219429   -4.71010973
         1.39286840   -4.75899084
         1.41354252   -4.83826967
         1.43421664   -4.95775527
         1.45489075   -5.11046942
         1.47556487   -5.28006648
         1.49623899   -5.45632385
         1.51691310   -5.63344924
         1.53758722   -5.81255723
         1.55826134   -5.99750107
         1.57893546   -6.18855200
         1.59960957   -6.38348207
         1.62028369   -6.57975183
         1.64095781   -6.77513081
         1.66163192   -6.96776237
         1.68230604   -7.15611417
         1.70298016   -7.33891334
         1.72365428   -7.51509060
         1.74432839   -7.68375421
         1.76500251   -7.84414019
         1.78567663   -7.99561181
         1.80635074   -8.13760883
         1.82702486   -8.26966917
         1.84769898   -8.39138983
         1.86837310   -8.50242218
         1.88904721   -8.60247470
         1.90972133   -8.69129919
         1.93039545   -8.76867621
         1.95106956   -8.83443695
         1.97174368   -8.88842907
         1.99241780   -8.93054094
         2.01309191   -8.96068090
         2.03376603   -8.97878659
         2.05444015   -8.98482497
        
    0.00000000   -8.48833259
         0.02088826   -8.48232406
         0.04177652   -8.46430271
         0.06266477   -8.43431433
         0.08355303   -8.39243587
         0.10444129   -8.33877863
         0.12532955   -8.27350138
         0.14621781   -8.19679039
         0.16710606   -8.10888353
         0.18799432   -8.01007826
         0.20888258   -7.90072708
         0.22977084   -7.78125478
         0.25065910   -7.65218475
         0.27154735   -7.51414756
         0.29243561   -7.36788832
         0.31332387   -7.21432810
         0.33421213   -7.05456860
         0.35510038   -6.88995154
         0.37598864   -6.72209577
         0.39687690   -6.55289976
         0.41776516   -6.38463936
         0.43865342   -6.21986546
         0.45954167   -6.06135250
         0.48042993   -5.91172191
         0.50131819   -5.77277440
         0.52220645   -5.64444133
         0.54309471   -5.52459696
         0.56398296   -5.41238560
         0.58487122   -5.31834442
         0.60575948   -5.27566911
         0.62664774   -5.24486743
         0.64753600   -5.19762166
         0.66842425   -5.15590732
         0.68931251   -5.12536054
         0.71020077   -5.10491164
         0.73108903   -5.09321106
         0.75197729   -5.08939270
         0.77265109   -5.08573807
         0.79332490   -5.07477883
         0.81399871   -5.05664647
         0.83467251   -5.03153650
         0.85534632   -4.99973412
         0.87602013   -4.96162555
         0.89669393   -4.91770800
         0.91736774   -4.86865163
         0.93804155   -4.81534421
         0.95871535   -4.75928957
         0.97938916   -4.70370873
         1.00006297   -4.65897208
         1.02073678   -4.65077185
         1.04141058   -4.68151011
         1.06208439   -4.72160342
         1.08275820   -4.66994296
         1.10343200   -4.62110523
         1.12410581   -4.57766813
         1.14477962   -4.54211635
         1.16545342   -4.51820329
         1.18612723   -4.51003401
         1.20680135   -4.51645427
         1.22747547   -4.53090326
         1.24814958   -4.54829749
         1.26882370   -4.56614537
         1.28949782   -4.58334747
         1.31017193   -4.59917550
         1.33084605   -4.61151029
         1.35152017   -4.61077233
         1.37219429   -4.59721115
         1.39286840   -4.63034550
         1.41354252   -4.74535695
         1.43421664   -4.86575557
         1.45489075   -4.99059744
         1.47556487   -5.12455616
         1.49623899   -5.26380079
         1.51691310   -5.40542193
         1.53758722   -5.55161118
         1.55826134   -5.70577839
         1.57893546   -5.86852223
         1.59960957   -6.03812272
         1.62028369   -6.21217143
         1.64095781   -6.38825995
         1.66163192   -6.56424506
         1.68230604   -6.73828025
         1.70298016   -6.90878254
         1.72365428   -7.07439327
         1.74432839   -7.23397982
         1.76500251   -7.38655766
         1.78567663   -7.53131297
         1.80635074   -7.66753049
         1.82702486   -7.79462473
         1.84769898   -7.91208560
         1.86837310   -8.01947298
         1.88904721   -8.11642649
         1.90972133   -8.20263539
         1.93039545   -8.27783130
         1.95106956   -8.34180728
         1.97174368   -8.39438032
         1.99241780   -8.43541292
         2.01309191   -8.46479260
         2.03376603   -8.48244503
         2.05444015   -8.48833259
        
    0.00000000   -7.81308125
         0.02088826   -7.80726876
         0.04177652   -7.78984294
         0.06266477   -7.76085902
         0.08355303   -7.72041640
         0.10444129   -7.66866007
         0.12532955   -7.60578956
         0.14621781   -7.53205296
         0.16710606   -7.44776156
         0.18799432   -7.35330720
         0.20888258   -7.24916462
         0.22977084   -7.13590846
         0.25065910   -7.01425212
         0.27154735   -6.88506263
         0.29243561   -6.74937461
         0.31332387   -6.60846975
         0.33421213   -6.46387042
         0.35510038   -6.31742175
         0.37598864   -6.17126897
         0.39687690   -6.02783864
         0.41776516   -5.88980129
         0.43865342   -5.75981568
         0.45954167   -5.64027023
         0.48042993   -5.53277372
         0.50131819   -5.43781494
         0.52220645   -5.35570190
         0.54309471   -5.29711863
         0.56398296   -5.27594825
         0.58487122   -5.25254514
         0.60575948   -5.18789598
         0.62664774   -5.11383236
         0.64753600   -5.05364555
         0.66842425   -5.00847205
         0.68931251   -4.97634698
         0.71020077   -4.95465522
         0.73108903   -4.94143040
         0.75197729   -4.93670199
         0.77265109   -4.93319192
         0.79332490   -4.92268650
         0.81399871   -4.90534690
         0.83467251   -4.88142416
         0.85534632   -4.85123551
         0.87602013   -4.81530521
         0.89669393   -4.77451042
         0.91736774   -4.73664646
         0.93804155   -4.69567414
         0.95871535   -4.65241408
         0.97938916   -4.60881437
         1.00006297   -4.56954182
         1.02073678   -4.52926678
         1.04141058   -4.47978788
         1.06208439   -4.43595540
         1.08275820   -4.40778333
         1.10343200   -4.39629529
         1.12410581   -4.39733916
         1.14477962   -4.40501597
         1.16545342   -4.41316093
         1.18612723   -4.41629809
         1.20680135   -4.41473649
         1.22747547   -4.41439935
         1.24814958   -4.41961826
         1.26882370   -4.43181556
         1.28949782   -4.45068820
         1.31017193   -4.47492640
         1.33084605   -4.50224107
         1.35152017   -4.52862385
         1.37219429   -4.54722226
         1.39286840   -4.59545869
         1.41354252   -4.66822979
         1.43421664   -4.76299858
         1.45489075   -4.85738071
         1.47556487   -4.95030893
         1.49623899   -5.04107429
         1.51691310   -5.12933618
         1.53758722   -5.22110685
         1.55826134   -5.32573320
         1.57893546   -5.44594167
         1.59960957   -5.57883113
         1.62028369   -5.72091946
         1.64095781   -5.86915015
         1.66163192   -6.02095773
         1.68230604   -6.17411918
         1.70298016   -6.32668546
         1.72365428   -6.47692777
         1.74432839   -6.62337929
         1.76500251   -6.76474335
         1.78567663   -6.89994025
         1.80635074   -7.02801419
         1.82702486   -7.14817888
         1.84769898   -7.25975845
         1.86837310   -7.36216979
         1.88904721   -7.45493201
         1.90972133   -7.53764200
         1.93039545   -7.60994464
         1.95106956   -7.67157463
         1.97174368   -7.72229069
         1.99241780   -7.76191829
         2.01309191   -7.79031556
         2.03376603   -7.80738601
         2.05444015   -7.81308125
        
    0.00000000   -7.04128752
         0.02088826   -7.03572992
         0.04177652   -7.01907056
         0.06266477   -6.99138348
         0.08355303   -6.95280565
         0.10444129   -6.90353081
         0.12532955   -6.84382742
         0.14621781   -6.77403759
         0.16710606   -6.69459000
         0.18799432   -6.60603169
         0.20888258   -6.50903245
         0.22977084   -6.40440998
         0.25065910   -6.29319076
         0.27154735   -6.17662544
         0.29243561   -6.05622477
         0.31332387   -5.93383303
         0.33421213   -5.81163457
         0.35510038   -5.69220754
         0.37598864   -5.57843653
         0.39687690   -5.47368716
         0.41776516   -5.38227895
         0.43865342   -5.31320474
         0.45954167   -5.27945711
         0.48042993   -5.26992178
         0.50131819   -5.26835007
         0.52220645   -5.26585054
         0.54309471   -5.24464372
         0.56398296   -5.18452621
         0.58487122   -5.11380487
         0.60575948   -5.04144795
         0.62664774   -4.97343492
         0.64753600   -4.93245623
         0.66842425   -4.91613789
         0.68931251   -4.90815622
         0.71020077   -4.90554863
         0.73108903   -4.90619045
         0.75197729   -4.90708578
         0.77265109   -4.90423939
         0.79332490   -4.89571301
         0.81399871   -4.88162507
         0.83467251   -4.86215855
         0.85534632   -4.83754602
         0.87602013   -4.80813594
         0.89669393   -4.77401968
         0.91736774   -4.72876320
         0.93804155   -4.68019463
         0.95871535   -4.63039852
         0.97938916   -4.58276948
         1.00006297   -4.54000440
         1.02073678   -4.49503716
         1.04141058   -4.44468936
         1.06208439   -4.38888446
         1.08275820   -4.33072524
         1.10343200   -4.27577941
         1.12410581   -4.22547651
         1.14477962   -4.17965689
         1.16545342   -4.14107409
         1.18612723   -4.12087699
         1.20680135   -4.13537960
         1.22747547   -4.16162788
         1.24814958   -4.19332450
         1.26882370   -4.22859483
         1.28949782   -4.26712136
         1.31017193   -4.31014299
         1.33084605   -4.36145569
         1.35152017   -4.42677595
         1.37219429   -4.50947598
         1.39286840   -4.56437375
         1.41354252   -4.60547451
         1.43421664   -4.65218317
         1.45489075   -4.72046954
         1.47556487   -4.79843248
         1.49623899   -4.88039651
         1.51691310   -4.96060130
         1.53758722   -5.03027030
         1.55826134   -5.08291472
         1.57893546   -5.12142453
         1.59960957   -5.15435362
         1.62028369   -5.20530505
         1.64095781   -5.31079169
         1.66163192   -5.43038909
         1.68230604   -5.55536263
         1.70298016   -5.68325924
         1.72365428   -5.81210329
         1.74432839   -5.94016809
         1.76500251   -6.06580605
